 be Density=1.848 Thickness=100. microns
 Photon Energy (eV), Transmission
    1000.0      0.15516E-04
    1008.5      0.20467E-04
    1017.2      0.26813E-04
    1025.8      0.34890E-04
    1034.6      0.45103E-04
    1043.4      0.57932E-04
    1052.3      0.73947E-04
    1061.3      0.93820E-04
    1070.4      0.11832E-03
    1079.5      0.14835E-03
    1088.7      0.18495E-03
    1098.0      0.22932E-03
    1107.4      0.28280E-03
    1116.9      0.34691E-03
    1126.4      0.42342E-03
    1136.0      0.51423E-03
    1145.7      0.62150E-03
    1155.5      0.74759E-03
    1165.4      0.89511E-03
    1175.3      0.10669E-02
    1185.4      0.12660E-02
    1195.5      0.14959E-02
    1205.7      0.17603E-02
    1216.0      0.20629E-02
    1226.4      0.24081E-02
    1236.9      0.28001E-02
    1247.4      0.32436E-02
    1258.1      0.37435E-02
    1268.8      0.43051E-02
    1279.7      0.49337E-02
    1290.6      0.56347E-02
    1301.6      0.64140E-02
    1312.7      0.72775E-02
    1323.9      0.82312E-02
    1335.2      0.92812E-02
    1346.6      0.10434E-01
    1358.1      0.11695E-01
    1369.7      0.13073E-01
    1381.4      0.14572E-01
    1393.2      0.16200E-01
    1405.1      0.17962E-01
    1417.1      0.19863E-01
    1429.2      0.21910E-01
    1441.4      0.24109E-01
    1453.7      0.26466E-01
    1466.1      0.28986E-01
    1478.7      0.31672E-01
    1491.3      0.34531E-01
    1504.0      0.37566E-01
    1516.9      0.40783E-01
    1529.8      0.44257E-01
    1542.9      0.47929E-01
    1556.1      0.51798E-01
    1569.3      0.55869E-01
    1582.7      0.60144E-01
    1596.3      0.64624E-01
    1609.9      0.69310E-01
    1623.6      0.74203E-01
    1637.5      0.79302E-01
    1651.5      0.84609E-01
    1665.6      0.90121E-01
    1679.8      0.95838E-01
    1694.2      0.10176    
    1708.6      0.10788    
    1723.2      0.11419    
    1737.9      0.12070    
    1752.8      0.12741    
    1767.7      0.13429    
    1782.8      0.14136    
    1798.1      0.14861    
    1813.4      0.15603    
    1828.9      0.16361    
    1844.5      0.17136    
    1860.3      0.17926    
    1876.1      0.18730    
    1892.2      0.19549    
    1908.3      0.20382    
    1924.6      0.21227    
    1941.1      0.22084    
    1957.6      0.22953    
    1974.4      0.23832    
    1991.2      0.24722    
    2008.2      0.25620    
    2025.4      0.26527    
    2042.7      0.27460    
    2060.1      0.28401    
    2077.7      0.29348    
    2095.4      0.30301    
    2113.3      0.31258    
    2131.4      0.32220    
    2149.6      0.33184    
    2167.9      0.34152    
    2186.4      0.35121    
    2205.1      0.36092    
    2223.9      0.37063    
    2242.9      0.38033    
    2262.1      0.39003    
    2281.4      0.39972    
    2300.9      0.40938    
    2320.5      0.41901    
    2340.3      0.42861    
    2360.3      0.43817    
    2380.5      0.44769    
    2400.8      0.45715    
    2421.3      0.46657    
    2442.0      0.47592    
    2462.8      0.48521    
    2483.9      0.49443    
    2505.1      0.50357    
    2526.5      0.51265    
    2548.1      0.52164    
    2569.8      0.53055    
    2591.8      0.53937    
    2613.9      0.54810    
    2636.2      0.55675    
    2658.7      0.56529    
    2681.4      0.57374    
    2704.3      0.58209    
    2727.4      0.59034    
    2750.7      0.59849    
    2774.2      0.60653    
    2797.9      0.61447    
    2821.8      0.62230    
    2845.9      0.63002    
    2870.2      0.63763    
    2894.7      0.64513    
    2919.4      0.65252    
    2944.3      0.65980    
    2969.5      0.66696    
    2994.8      0.67401    
    3020.4      0.68096    
    3046.2      0.68789    
    3072.2      0.69474    
    3098.4      0.70146    
    3124.9      0.70807    
    3151.6      0.71456    
    3178.5      0.72094    
    3205.6      0.72720    
    3233.0      0.73335    
    3260.6      0.73938    
    3288.5      0.74530    
    3316.5      0.75111    
    3344.9      0.75681    
    3373.4      0.76240    
    3402.2      0.76788    
    3431.3      0.77325    
    3460.6      0.77852    
    3490.1      0.78368    
    3519.9      0.78873    
    3550.0      0.79368    
    3580.3      0.79853    
    3610.9      0.80328    
    3641.7      0.80793    
    3672.8      0.81248    
    3704.2      0.81694    
    3735.8      0.82130    
    3767.7      0.82557    
    3799.9      0.82974    
    3832.3      0.83383    
    3865.1      0.83782    
    3898.1      0.84173    
    3931.3      0.84555    
    3964.9      0.84928    
    3998.8      0.85293    
    4032.9      0.85650    
    4067.4      0.85999    
    4102.1      0.86340    
    4137.1      0.86677    
    4172.4      0.87007    
    4208.1      0.87328    
    4244.0      0.87642    
    4280.3      0.87949    
    4316.8      0.88249    
    4353.7      0.88541    
    4390.8      0.88827    
    4428.3      0.89105    
    4466.2      0.89377    
    4504.3      0.89643    
    4542.8      0.89902    
    4581.5      0.90155    
    4620.7      0.90401    
    4660.1      0.90642    
    4699.9      0.90877    
    4740.1      0.91106    
    4780.5      0.91329    
    4821.3      0.91547    
    4862.5      0.91760    
    4904.0      0.91967    
    4945.9      0.92169    
    4988.2      0.92366    
    5030.7      0.92559    
    5073.7      0.92746    
    5117.0      0.92929    
    5160.7      0.93107    
    5204.8      0.93281    
    5249.2      0.93451    
    5294.1      0.93618    
    5339.3      0.93780    
    5384.9      0.93938    
    5430.9      0.94092    
    5477.2      0.94242    
    5524.0      0.94389    
    5571.2      0.94531    
    5618.7      0.94670    
    5666.7      0.94805    
    5715.1      0.94937    
    5763.9      0.95065    
    5813.1      0.95190    
    5862.8      0.95312    
    5912.8      0.95431    
    5963.3      0.95546    
    6014.2      0.95658    
    6065.6      0.95768    
    6117.4      0.95875    
    6169.6      0.95979    
    6222.3      0.96080    
    6275.5      0.96178    
    6329.0      0.96274    
    6383.1      0.96368    
    6437.6      0.96460    
    6492.6      0.96549    
    6548.0      0.96636    
    6603.9      0.96720    
    6660.3      0.96802    
    6717.2      0.96882    
    6774.6      0.96960    
    6832.4      0.97036    
    6890.7      0.97109    
    6949.6      0.97181    
    7008.9      0.97251    
    7068.8      0.97319    
    7129.1      0.97385    
    7190.0      0.97449    
    7251.4      0.97512    
    7313.3      0.97573    
    7375.8      0.97632    
    7438.8      0.97689    
    7502.3      0.97746    
    7566.4      0.97800    
    7631.0      0.97853    
    7696.1      0.97905    
    7761.9      0.97955    
    7828.1      0.98004    
    7895.0      0.98051    
    7962.4      0.98098    
    8030.4      0.98143    
    8099.0      0.98186    
    8168.1      0.98229    
    8237.9      0.98270    
    8308.2      0.98311    
    8379.2      0.98350    
    8450.7      0.98389    
    8522.9      0.98426    
    8595.7      0.98462    
    8669.1      0.98498    
    8743.1      0.98532    
    8817.7      0.98565    
    8893.0      0.98598    
    8969.0      0.98629    
    9045.6      0.98660    
    9122.8      0.98690    
    9200.7      0.98719    
    9279.3      0.98747    
    9358.5      0.98774    
    9438.4      0.98801    
    9519.0      0.98827    
    9600.3      0.98852    
    9682.3      0.98876    
    9765.0      0.98900    
    9848.4      0.98923    
    9932.5      0.98946    
    10017.      0.98968    
    10103.      0.98989    
    10189.      0.99010    
    10276.      0.99030    
    10364.      0.99049    
    10452.      0.99068    
    10542.      0.99087    
    10632.      0.99105    
    10722.      0.99122    
    10814.      0.99139    
    10906.      0.99156    
    10999.      0.99172    
    11093.      0.99188    
    11188.      0.99203    
    11284.      0.99217    
    11380.      0.99232    
    11477.      0.99246    
    11575.      0.99259    
    11674.      0.99272    
    11774.      0.99285    
    11874.      0.99297    
    11976.      0.99309    
    12078.      0.99321    
    12181.      0.99332    
    12285.      0.99343    
    12390.      0.99354    
    12496.      0.99364    
    12602.      0.99375    
    12710.      0.99384    
    12819.      0.99394    
    12928.      0.99403    
    13038.      0.99412    
    13150.      0.99421    
    13262.      0.99430    
    13375.      0.99438    
    13490.      0.99446    
    13605.      0.99454    
    13721.      0.99461    
    13838.      0.99468    
    13956.      0.99475    
    14075.      0.99482    
    14196.      0.99489    
    14317.      0.99495    
    14439.      0.99502    
    14562.      0.99508    
    14687.      0.99514    
    14812.      0.99519    
    14939.      0.99525    
    15066.      0.99530    
    15195.      0.99536    
    15325.      0.99541    
    15455.      0.99546    
    15587.      0.99551    
    15721.      0.99556    
    15855.      0.99561    
    15990.      0.99565    
    16127.      0.99570    
    16264.      0.99574    
    16403.      0.99578    
    16543.      0.99582    
    16685.      0.99586    
    16827.      0.99590    
    16971.      0.99593    
    17116.      0.99597    
    17262.      0.99600    
    17409.      0.99604    
    17558.      0.99607    
    17708.      0.99610    
    17859.      0.99613    
    18012.      0.99616    
    18165.      0.99619    
    18321.      0.99622    
    18477.      0.99625    
    18635.      0.99627    
    18794.      0.99630    
    18954.      0.99632    
    19116.      0.99635    
    19279.      0.99637    
    19444.      0.99639    
    19610.      0.99641    
    19778.      0.99643    
    19947.      0.99645    
    20117.      0.99647    
    20289.      0.99649    
    20462.      0.99652    
    20637.      0.99654    
    20813.      0.99655    
    20991.      0.99657    
    21170.      0.99659    
    21351.      0.99661    
    21533.      0.99663    
    21717.      0.99664    
    21902.      0.99666    
    22089.      0.99667    
    22278.      0.99669    
    22468.      0.99670    
    22660.      0.99672    
    22853.      0.99673    
    23049.      0.99675    
    23245.      0.99676    
    23444.      0.99677    
    23644.      0.99678    
    23846.      0.99680    
    24050.      0.99681    
    24255.      0.99682    
    24462.      0.99683    
    24671.      0.99684    
    24882.      0.99685    
    25094.      0.99686    
    25308.      0.99687    
    25525.      0.99688    
    25743.      0.99689    
    25962.      0.99690    
    26184.      0.99690    
    26408.      0.99691    
    26633.      0.99692    
    26861.      0.99693    
    27090.      0.99694    
    27321.      0.99694    
    27555.      0.99695    
    27790.      0.99696    
    28027.      0.99696    
    28266.      0.99697    
    28508.      0.99697    
    28751.      0.99698    
    28997.      0.99699    
    29244.      0.99699    
    29494.      0.99700    
    29746.      0.99700    
    30000.      0.99701    
